Amplitude,RR,Arritmia
0.918632070124893,0.872222222292,(N
1.07035887569268,0.87500000007,(N
1.00747534543356,0.891666666738,(N
1.0243641868242,0.933333333408,(N
0.909587583542613,0.952777777854,(N
0.949626710415752,0.90277777785,(N
1.24939988970851,0.869444444514,(N
1.19657840758653,0.866666666736,(N
1.1192327535161,0.861111111179999,(N
1.04881136447269,0.916666666740001,(N
1.07584428459489,0.913888888961999,(N
1.07143904984079,0.916666666740001,(N
1.09186295002777,0.897222222293999,(N
1.03271032363252,0.905555555628,(N
0.812792145610561,0.886111111182,(N
1.13683711767277,0.866666666736,(N
1.06687205940562,0.911111111183999,(N
0.833540427089425,0.916666666740001,(N
1.03527198821382,0.900000000071998,(N
1.08208809256631,0.84722222229,(N
1.05921124279576,0.841666666734,(N
0.947378630936907,0.866666666736002,(N
0.834810640514632,0.88888888896,(N
0.845465165377381,0.897222222293998,(N
0.766285735071449,0.88888888896,(N
1.00011864721861,0.858333333402001,(N
1.12927653342567,0.852777777846001,(N
0.961422931552671,0.844444444512,(N
1.08134512633165,0.819444444509998,(N
1.11761415481646,0.855555555624001,(N
1.12895211190061,0.902777777850002,(N
0.925262732506505,0.911111111183999,(N
1.00439512968146,0.855555555624001,(N
1.00491193175409,0.838888888955999,(N
1.13758470624785,0.813888888954001,(N
1.29513564169512,0.794444444507999,(N
1.3211523637185,0.802777777842,(N
1.4783444842706,0.805555555620003,(N
1.40549883246521,0.800000000063996,(N
1.3795400011549,0.788888888952002,(N
1.21529749333952,0.805555555619996,(N
1.14632837504239,0.755555555616006,(N
1.07498262971734,0.761111111171999,(N
1.25882757186987,0.786111111173994,(N
1.36225320726728,0.802777777842003,(N
1.40386011034339,0.841666666734,(N
1.33806540995925,0.855555555624001,(N
1.16823818922133,0.786111111174002,(N
1.11952942460863,0.755555555615999,(N
1.10082878679119,0.772222222284,(N
1.09352769821963,0.797222222286003,(N
0.987869361043765,0.808333333397997,(N
1.00915130406691,0.830555555621999,(N
1.1717603105314,0.84722222229,(N
1.12330376595333,0.836111111177999,(N
0.955859729648351,0.816666666732004,(N
0.910538400114305,0.780555555618001,(N
0.92280899912193,0.783333333395994,(N
1.01168752938585,0.791666666730002,(N
0.976215156615486,0.825000000065998,(N
0.957845603228317,0.811111111176004,(N
0.909761693776376,0.802777777841996,(N
0.87908354640079,0.808333333398004,(N
0.908386078775722,0.808333333397997,(N
1.03339948296628,0.838888888955999,(N
0.833204273582291,0.869444444514002,(N
0.860580995679709,0.888888888959997,(N
0.901004040838079,0.911111111184006,(N
0.871853496731085,0.955555555631996,(N
0.975975582302428,0.925000000074,(N
1.04410508394326,0.861111111180001,(N
1.02266351491293,0.894444444515997,(N
0.976386727393473,0.891666666738004,(N
0.904873354137728,0.916666666739999,(N
1.01236928552469,0.958333333410003,(N
1.08792815089303,0.916666666739999,(N
1.14587403059087,0.883333333403996,(N
1.22616882443509,0.875000000070003,(N
1.27192428588948,0.872222222291995,(N
1.19905130714257,0.880555555626003,(N
1.21258758276779,0.886111111182004,(N
1.12154774814919,0.927777777852,(N
0.967961007655399,0.919444444517993,(N
0.942054855228237,0.844444444512007,(N
1.03696998000225,0.836111111177999,(N
1.1368161460765,0.911111111183999,(N
1.03404034763651,0.916666666739999,(N
0.879325735271735,0.930555555629994,(N
0.994020989240072,0.886111111182004,(N
1.22324495136834,0.866666666735995,(N
1.13137611657471,0.861111111180008,(N
1.21729137569757,0.875000000070003,(N
1.19895675212234,0.841666666734,(N
1.107405888737,0.813888888953997,(N
1.04364714175539,0.869444444514002,(N
1.02141476005392,0.872222222291995,(N
0.878967072070417,0.852777777846001,(N
0.928676146269562,0.827777777844005,(N
0.881283667684299,0.836111111177999,(N
0.995017912090533,0.825000000065998,(N
1.09149163395235,0.902777777849991,(N
0.977021199763518,0.902777777850005,(N
0.847120276392243,0.869444444514002,(N
0.826224883795679,0.875000000070003,(N
0.824558650256069,0.841666666734,(N
0.86268351346334,0.836111111177999,(N
1.48967129856457,0.827777777843991,(N
2.08637823343336,0.666666666720005,(N
1.42278514832289,1.050000000084,(N
0.914125885963851,0.802777777841996,(N
0.713681741357389,1.32222222232799,(N
0.685564082265558,0.800000000064003,(N
0.685898099840451,0.836111111177999,(N
0.859323900342985,0.858333333402001,(N
0.572861989737304,0.861111111179994,(N
0.84837458670229,0.869444444514002,(N
0.933355016113148,0.855555555623994,(N
0.895311989486995,0.841666666734,(N
0.947697252631933,0.858333333402001,(N
0.950142226219796,0.897222222294005,(N
0.994267628193595,0.908333333406006,(N
0.945107951760969,0.916666666739999,(N
0.691390856803144,0.886111111181989,(N
0.851598837376362,0.861111111180008,(N
0.884645442665273,0.880555555626003,(N
0.722038695216841,0.877777777847996,(N
0.924019815028432,0.894444444515997,(N
0.882553742230575,0.902777777850005,(N
1.04203187882974,0.913888888961992,(N
0.558343468606633,0.377777777808006,(N
1.0930554825076,0.855555555624008,(N
1.0930554825076,0.477777777816002,(N
0.792214232981999,1.280555555658,(N
1.07103707820264,0.772222222284,(N
0.792735046149116,0.797222222285995,(N
0.876779338122255,0.822222222288005,(N
0.876779338122255,0.822222222288005,(N
1.07922920495358,0.819444444509998,(N
1.20004033863623,0.813888888953997,(N
1.28498715102749,0.769444444506007,(N
1.45318619310928,0.769444444505993,(N
1.39450494408674,0.775000000062008,(N
1.28056731998989,0.750000000059998,(N
0.637510878444344,0.775000000061993,(N
0.679147918821175,0.811111111176004,(N
0.866802242101117,0.788888888952002,(N
0.924256017805094,0.794444444508002,(N
1.22707345277165,0.827777777844005,(N
1.29400432854982,0.841666666734,(N
1.42329336315482,0.86111111117998,(N
1.49896111577839,0.861111111180008,(N
1.38244082361539,0.830555555621999,(N
1.95615285366873,0.822222222288019,(N
1.89604000479058,0.627777777827987,(N
1.50256763964987,0.494444444484003,(N
0.948745969832623,0.80277777784201,(N
1.10604817181897,0.841666666734,(N
1.18702221930112,0.847222222289986,(N
1.20766729861579,0.825000000066012,(N
1.18014945328318,0.769444444506007,(N
1.18892721891499,0.775000000061993,(N
1.25258300453536,0.752777777837991,(N
1.89557863622993,0.775000000062022,(N
1.45460043430405,0.800000000063989,(N
1.00124526143171,1.32222222232801,(N
0.757851140201955,0.794444444508002,(N
1.25688834816313,0.794444444508002,(N
1.39300135344361,0.775000000061993,(N
1.27512449681851,0.758333333394006,(N
1.06618180692262,0.758333333394006,(N
0.664927515388263,0.783333333396001,(N
0.871678148508808,0.813888888953983,(N
0.991372400224969,0.816666666732004,(N
0.921329143346118,0.794444444508002,(N
0.899976584912043,0.777777777839987,(N
1.18096018850873,0.761111111171999,(N
0.927243687213196,0.822222222288019,(N
0.752255534828397,0.827777777844005,(N
0.974517461062274,0.813888888953983,(N
1.38589595615976,0.827777777844005,(N
1.25427392482844,0.844444444511993,(N
1.19141409844248,0.836111111178013,(N
1.27869728207681,0.822222222287991,(N
1.30918221533389,0.833333333399992,(N
1.31989654183472,0.863888888958002,(N
1.25751062214452,0.927777777852015,(N
1.18256989657957,0.944444444520002,(N
1.08246953070244,0.933333333408001,(N
0.97332137703969,0.880555555625989,(N
0.984467014969303,0.825000000066012,(N
1.00187131732783,0.844444444511993,(N
1.1980641481289,0.888888888959997,(N
1.15165950656014,0.900000000071998,(N
1.23342082679359,0.922222222296,(N
1.16846972078167,0.930555555630008,(N
1.04130156904537,0.888888888959997,(N
1.03728919327332,0.855555555623994,(N
1.13739646524273,0.844444444511993,(N
1.14323538214056,0.850000000068007,(N
1.13227418989018,0.922222222296,(N
1.16766070127555,0.919444444518007,(N
1.17300602644765,0.838888888956006,(N
1.12857221365055,0.866666666735995,(N
1.02326584994868,0.894444444515983,(N
1.31429531842509,1.27222222232402,(N
2.30851158022942,0.394444444475994,(N
0.987245666683618,0.713888888946002,(N
1.58868212014501,1.16111111120401,(N
1.39465671718203,0.49166666670601,(N
1.14250063717448,0.933333333408001,(N
1.07097724348399,0.838888888956006,(N
1.20315832287163,0.875000000070003,(N
1.25803205013363,0.919444444518007,(N
1.2005063304314,0.916666666739985,(N
1.40157072544203,0.886111111182004,(N
1.4588139972101,0.944444444520002,(N
1.47714888155561,0.902777777849991,(N
1.49053405284985,0.858333333402015,(N
1.54644979894269,0.863888888958002,(N
1.54315756023035,0.894444444515983,(N
1.51648755192857,0.922222222296,(N
1.27069057613698,0.947222222297995,(N
1.30752283871271,0.905555555628013,(N
1.24443546712494,0.850000000068007,(N
1.36887403816082,0.858333333401987,(N
1.30981501430364,0.866666666735995,(N
1.21907221913428,0.900000000071998,(N
1.19530511677355,0.933333333408001,(N
1.1844906124482,0.927777777852015,(N
1.04373816400844,0.933333333408001,(N
1.16273649335003,0.869444444513988,(N
1.27758774310455,0.858333333402015,(N
1.36377650678261,0.863888888958002,(N
1.40645285874705,0.913888888961992,(N
1.39110269755217,0.916666666739985,(N
1.69402037322646,0.897222222294005,(N
1.71255810707919,0.844444444512021,(N
1.75998281091563,0.816666666731976,(N
2.08158113569125,0.866666666736023,(N
1.64067799478875,0.880555555625989,(N
1.31172515720229,0.908333333406006,(N
1.43464602470494,0.944444444520002,(N
1.55848387062651,0.880555555625989,(N
1.52602895826204,0.897222222294005,(N
1.50695348531114,0.880555555625989,(N
1.43579976409778,0.87222222229201,(N
1.43637448459962,0.905555555628013,(N
1.448620698751,0.936111111185994,(N
1.51027401983834,0.919444444517978,(N
1.47799888759948,0.933333333408001,(N
1.41998702406981,0.916666666740014,(N
1.71211530149092,0.888888888959997,(N
1.51796095848183,0.908333333406006,(N
1.49007954925394,0.944444444520002,(N
1.58937202423912,0.955555555632003,(N
1.53998882740853,0.991666666745999,(N
1.45794195532888,0.936111111185994,(N
1.48196026772358,0.855555555623994,(N
1.41765605300754,0.844444444511993,(N
1.61127542048788,0.855555555624022,(N
1.57403989821761,0.930555555629979,(N
1.53273837417452,0.958333333409996,(N
1.41466384232135,0.936111111186023,(N
1.38189695447774,0.897222222294005,(N
1.33312394827698,0.916666666739985,(N
1.18802805662248,0.916666666740014,(N
1.01512565493671,0.927777777851986,(N
1.25536025315614,0.908333333406006,(N
1.25076156765311,0.952777777853981,(N
1.21738483309833,0.950000000076017,(N
1.3580234041821,0.858333333401987,(N
1.31409755438666,0.852777777846001,(N
1.29107571333741,0.938888888964016,(N
1.19627943664878,0.958333333409996,(N
1.07455539465037,0.930555555630008,(N
1.45387783616881,0.877777777847996,(N
1.3188349720846,0.841666666734,(N
1.5693454688798,0.866666666735995,(N
1.63167764008143,0.858333333401987,(N
1.60499353826144,0.869444444514016,(N
1.61260732770052,0.969444444521997,(N
1.48403571546182,0.961111111187989,(N
1.50460835546353,0.938888888964016,(N
1.45491123139957,0.913888888961992,(N
1.39909545511109,0.919444444518007,(N
1.36827369421816,0.963888888965982,(N
1.28894084364275,0.980555555633998,(N
0.551064530909876,0.997222222302014,(N
1.53377746820555,0.938888888963987,(N
1.54722395569195,0.938888888964016,(N
1.52440075069776,0.922222222296,(N
1.38099712133508,0.911111111183999,(N
1.24915272325368,0.961111111187989,(N
1.51962649375308,0.977777777856005,(N
1.51694185167659,0.98055555563397,(N
1.45109606444943,0.955555555632031,(N
1.40659588873476,0.94166666674198,(N
1.44471870869488,0.947222222298024,(N
1.35638594746681,0.961111111188018,(N
1.22721173167319,0.944444444519945,(N
0.802518895865414,0.991666666746028,(N
1.02219741165731,0.977777777856033,(N
1.10914984464737,0.916666666739957,(N
1.24312330842113,0.913888888962049,(N
1.31282035350891,0.933333333407973,(N
1.10545421362011,0.975000000078012,(N
1.10645602792584,0.955555555632031,(N
1.27055338710639,0.91111111118397,(N
1.22842858523225,0.936111111185994,(N
1.23805238932459,0.947222222298024,(N
1.33160871803872,0.988888888968006,(N
1.21150264501655,0.961111111188018,(N
1.05806504935108,0.930555555630008,(N
1.30486904740425,0.897222222293976,(N
1.27033181786628,0.958333333409996,(N
1.25439589858148,0.947222222298024,(N
1.19319853603933,0.955555555631975,(N
1.25750185459949,0.950000000075988,(N
1.25636137634606,0.95277777785401,(N
0.917847970426987,0.994444444523992,(N
1.39502113491384,0.905555555627984,(N
1.08864012599072,0.913888888961992,(N
1.15293888568963,0.938888888964016,(N
1.03534004062494,0.927777777851986,(N
1.23353588998399,0.877777777847996,(N
1.48574339717721,0.925000000074022,(N
1.47173719704239,0.888888888959968,(N
1.4131307566175,0.916666666740014,(N
1.27613599032252,0.897222222294033,(N
1.31826508343313,0.938888888963959,(N
1.11283144593352,0.991666666746028,(N
1.18711192607978,0.97222222229999,(N
1.13572114169694,0.930555555630008,(N
1.4934562656294,0.89166666673799,(N
1.49955053418976,0.958333333409996,(N
1.50553095162036,0.988888888968006,(N
0.828941942156361,0.994444444523992,(N
1.25906270444482,0.969444444521969,(N
1.22339214533657,0.955555555632031,(N
1.29709546357498,0.988888888968006,(N
1.41582248985878,0.988888888968006,(N
1.31008049160357,0.994444444523992,(N
0.768668816387712,0.925000000074022,(N
0.664469992220434,0.925000000074022,(N
1.75792841792167,0.97222222229999,(N
1.30471085935909,0.49166666670601,(N
1.04071581304151,0.958333333409996,(N
0.986243332029147,0.925000000073965,(N
0.848087653518394,0.913888888961992,(N
1.18527042239978,0.927777777852043,(N
1.4053487199552,0.966666666744004,(N
1.3320228010425,0.947222222297967,(N
1.21885889351455,0.900000000071998,(N
1.12012206912121,0.930555555630008,(N
1.5079136314997,0.927777777851986,(N
1.20801383137792,0.902777777850019,(N
1.26795626044363,0.922222222296,(N
1.28558373838755,0.89166666673799,(N
1.2952844437966,0.900000000071998,(N
1.66969233632193,0.863888888958002,(N
1.49462933868279,0.838888888956035,(N
1.52012160688742,0.919444444517978,(N
1.58844178468102,0.98333333341202,(N
1.62372346192727,0.991666666745971,(N
1.67513437360635,0.950000000075988,(N
1.64127602875336,0.919444444518035,(N
1.61844570130206,0.966666666744004,(N
1.58182563513633,0.986111111189985,(N
1.58022275030735,0.991666666746028,(N
1.48060114503028,0.991666666745971,(N
1.48357823073962,0.94166666674198,(N
1.66009217470987,0.916666666740014,(N
1.73791541129455,0.908333333406006,(N
1.44038176864485,0.936111111185994,(N
0.641391626895466,0.997222222302014,(N
1.38357325971226,0.961111111188018,(N
1.43196537256339,0.938888888964016,(N
1.45705909580091,0.919444444517978,(N
1.40884335100749,0.897222222293976,(N
1.40475975155927,0.947222222298024,(N
1.38644385039914,0.980555555633998,(N
1.31053631246185,0.947222222298024,(N
1.27852441281165,0.869444444513988,(N
1.21949339866726,0.905555555627984,(N
1.23541989624593,0.877777777848053,(N
1.5306599029908,0.944444444519945,(N
1.52821068436001,0.919444444518035,(N
1.48568495065067,0.908333333406006,(N
1.39986766815279,0.86111111117998,(N
1.19777899026957,0.86111111117998,(N
1.48348193466766,0.858333333402015,(N
1.40814937204214,0.930555555630008,(N
1.43432808727134,0.963888888965982,(N
1.43008548140637,0.988888888968006,(N
1.29756372243255,0.538888888932036,(N
1.37498115778067,0.966666666744004,(N
1.39090215236049,0.975000000077955,(N
1.34667017191745,0.977777777856033,(N
1.53371366500959,0.961111111187961,(N
1.58131319582556,0.969444444522026,(N
1.57377171486717,0.980555555633998,(N
1.41695785045716,0.950000000075988,(N
1.43398377835848,0.975000000078012,(N
0.969908842445512,0.994444444524049,(N
1.30243263453349,0.938888888964016,(N
1.14838759064798,0.994444444523992,(N
1.48680799305539,0.966666666744004,(N
1.40525604784584,0.975000000077955,(N
1.32426403015958,0.983333333411963,(N
1.34598527372002,0.991666666746028,(N
1.2495785626779,0.98333333341202,(N
1.44326848924272,0.988888888967949,(N
1.41987232655395,0.986111111189985,(N
1.33665480226388,0.986111111189985,(N
0.759525237680491,0.997222222302014,(N
1.37198827415809,0.98333333341202,(N
1.37193616479738,0.986111111190041,(N
0.804737713039873,0.997222222302014,(N
1.41602518379785,0.969444444521969,(N
1.48486840754846,0.969444444521969,(N
1.42175091683971,0.986111111190041,(N
1.50227630913379,0.991666666745971,(N
1.3958280533562,0.969444444521969,(N
1.25835748762006,0.991666666746028,(N
0.515685309470471,0.997222222302014,(N
1.13729649216051,0.991666666745971,(N
0.663899632395183,0.997222222301957,(N
1.23394520074228,0.988888888968006,(N
1.23558761567001,0.991666666746028,(N
1.33672930181121,0.94166666674198,(N
1.41655971884826,0.905555555627984,(N
1.24333754897207,0.936111111185994,(N
1.38054402589899,0.980555555633998,(N
1.60248213470078,0.966666666744004,(N
1.59848806142904,0.961111111187961,(N
1.33182941794478,0.961111111188018,(N
1.29743247240867,0.938888888964016,(N
0.981177284122559,0.994444444523992,(N
1.20057159602734,0.977777777856033,(N
1.19874638676727,0.961111111188018,(N
1.54132849305965,0.886111111182004,(N
1.46691681355328,0.925000000074022,(N
1.29151920884962,0.994444444523992,(N
0.814586967528717,0.997222222302014,(N
1.28713615238754,0.958333333409996,(N
1.39835085272881,0.966666666744004,(N
1.36012198746295,0.977777777856033,(N
1.65453213423595,0.955555555631975,(N
1.45583459198575,0.961111111188018,(N
1.61168337524039,0.947222222297967,(N
1.58634132087328,0.975000000078012,(N
1.47096260398723,0.95277777785401,(N
1.43814029216865,0.936111111185994,(N
1.24759649574848,0.952777777853953,(N
1.46005930513277,0.994444444524106,(N
1.50320730447858,0.972222222299933,(N
1.42280133277261,0.936111111186051,(N
1.54821370780556,0.911111111184027,(N
1.5916581341633,0.922222222296,(N
1.48176592439504,0.933333333407973,(N
1.4707273328315,0.988888888967949,(N
0.92308153331386,0.997222222302071,(N
1.54428433656792,0.902777777850019,(N
1.52989438980923,0.869444444513988,(N
1.47267916232445,0.894444444516012,(N
1.31052015364253,0.919444444518035,(N
1.28042379796597,0.975000000077898,(N
1.41445632159803,0.972222222300047,(N
1.40876372933482,0.938888888964016,(N
1.19903788298461,0.933333333407973,(N
1.09705298155632,0.911111111184027,(N
1.40431299299099,0.883333333404039,(N
1.42895626187416,0.955555555631918,(N
1.42546034872633,0.98333333341202,(N
1.25983247131209,0.988888888968063,(N
1.4368173757205,0.908333333405949,(N
1.4442072501788,0.900000000072055,(N
1.33059577256531,0.922222222296,(N
1.23462091624824,0.938888888963902,(N
1.23558369547216,0.966666666744004,(N
1.20037245750509,0.955555555632031,(N
1.37028880745265,0.933333333407973,(N
1.37365388929934,0.936111111186051,(N
1.35182685434906,0.922222222296,(N
1.44755941063258,0.922222222296,(N
1.38043370246974,0.975000000078012,(N
1.2686346375952,0.938888888963902,(N
1.31322633534765,0.952777777854067,(N
1.26817938387479,0.961111111187961,(N
1.43510624051185,0.950000000075988,(N
1.40765740305275,0.972222222300047,(N
1.41498516053053,0.969444444521969,(N
1.27627743393275,0.963888888966039,(N
1.26335349083039,0.936111111185937,(N
1.24727919071996,0.947222222298024,(N
1.12167516201817,0.980555555634055,(N
1.1774452227365,0.991666666745914,(N
1.1895790657411,0.988888888967949,(N
1.12618854343974,0.958333333409996,(N
1.19946859777053,0.952777777854067,(N
1.33731593310917,0.938888888964016,(N
1.32463358968578,0.955555555631918,(N
1.290137464703,0.966666666744004,(N
1.22793950289589,0.986111111189985,(N
1.1617508363732,0.969444444521969,(N
1.15084077388131,0.94166666674198,(N
1.17084031134917,0.969444444521969,(N
1.4514065614352,0.963888888966039,(N
1.28979553908196,0.958333333409996,(N
1.23193498522125,0.955555555632031,(N
1.23090498238888,0.922222222296,(N
1.35411334961741,0.922222222296,(N
1.30421096146189,0.975000000078012,(N
0.593106534779946,0.997222222301957,(N
1.11916654467698,0.991666666745914,(N
1.32686547786098,0.988888888967949,(N
1.27686114847757,0.986111111189985,(N
1.35396686881875,0.977777777855977,(N
1.34931348979567,0.938888888964016,(N
1.27401709884501,0.955555555632031,(N
1.32587832987407,0.977777777855977,(N
1.30159413695429,0.925000000073965,(N
1.44019403278937,0.988888888968063,(N
1.38037374794582,0.977777777855977,(N
1.3549462988982,0.969444444521969,(N
1.32796678245161,0.975000000078012,(N
1.33843698561282,0.919444444518035,(N
1.34106752932164,0.944444444519945,(N
1.29379981696697,0.922222222296,(N
1.4470016893754,0.888888888960082,(N
1.43842679202657,0.986111111189985,(N
1.48995650112731,0.975000000078012,(N
1.40864545077184,0.947222222298024,(N
1.46262665122847,0.927777777852043,(N
1.2822332140813,0.98333333341202,(N
1.35787221849067,0.986111111189985,(N
1.38790497571319,0.969444444521969,(N
1.30619279086676,0.944444444519945,(N
1.26667363226493,0.961111111188075,(N
1.29846891224468,0.952777777853953,(N
1.12165428549139,0.98333333341202,(N
1.11804899811835,0.986111111190098,(N
0.87659219056465,0.994444444523992,(N
0.878311207891531,0.994444444523992,(N
1.25513661861503,0.972222222300047,(N
1.19281542688698,0.947222222298024,(N
0.524384773970398,0.994444444523992,(N
1.21989192485899,0.961111111188075,(N
0.72981549859141,0.997222222301957,(N
1.28590403199297,0.986111111190098,(N
1.26828741192915,0.963888888966039,(N
1.2913070288311,0.986111111189985,(N
1.53843562722309,0.977777777855977,(N
1.50682906240319,0.963888888966039,(N
1.47219178438285,0.963888888966039,(N
0.948325633705668,0.997222222301957,(N
1.35387173116302,0.972222222300047,(N
1.38174418032272,0.988888888968063,(N
1.30666191428988,0.969444444521969,(N
1.39034392267567,0.988888888967949,(N
1.33015595674621,0.988888888967949,(N
1.29563641369431,0.94166666674198,(N
0.625242954791423,0.994444444524106,(N
1.20828549891799,0.961111111187961,(N
1.38424945265152,0.972222222300047,(N
1.42512416154238,0.966666666744004,(N
1.32322570562482,0.991666666746028,(N
1.3574393680702,0.988888888967949,(N
1.33155852854344,0.963888888966039,(N
1.17185139656155,0.969444444521969,(N
1.5238921391976,0.991666666746028,(N
1.43833406776279,0.944444444520059,(N
1.35829541802495,0.980555555633941,(N
1.16979240387768,0.977777777855977,(N
1.11166262209501,0.969444444522082,(N
1.16039113074657,0.994444444523992,(N
1.30613580614417,0.966666666744004,(N
1.47512504339325,0.988888888967949,(N
1.39703821837998,0.986111111190098,(N
1.39847780704619,0.994444444523992,(N
1.43704680323691,0.961111111188075,(N
1.35438730985013,0.972222222299933,(N
0.617001179457508,0.994444444524106,(N
1.24557251423679,0.969444444521969,(N
1.23665072202762,0.963888888966039,(N
1.21320674896348,0.991666666745914,(N
1.22252271115868,0.977777777855977,(N
1.42805849880083,0.986111111189985,(N
1.39352641701794,0.98333333341202,(N
1.13755003303378,0.966666666744004,(N
1.09889677107441,0.991666666746028,(N
0.861464768351156,0.994444444524106,(N
1.35286509543748,0.966666666744004,(N
1.26153410613627,0.952777777853953,(N
1.26256135404231,0.991666666746028,(N
1.4588752427706,0.969444444522082,(N
1.41046024561015,0.969444444521969,(N
0.522441990376219,0.997222222302071,(N
1.3086644038568,0.986111111189985,(N
1.29365672856659,0.975000000078012,(N
1.28177328944298,0.986111111190098,(N
1.43707473516551,0.969444444522082,(N
0.608013480902491,0.994444444523992,(N
1.1972102954993,0.986111111189985,(N
1.23480012238115,0.975000000078012,(N
1.34155343383668,0.991666666746028,(N
1.29342447906825,0.958333333409996,(N
0.816277767122755,0.997222222302071,(N
1.33329589933258,0.98333333341202,(N
1.35711884379481,0.977777777855977,(N
1.5063300156602,0.972222222300047,(N
1.48513806164355,0.975000000078012,(N
1.33717082589954,0.975000000078012,(N
1.14973398089515,0.991666666745914,(N
1.1718108800064,0.991666666746028,(N
0.635223110617084,0.997222222301957,(N
1.2059633001695,0.975000000078012,(N
1.3431093990812,0.961111111187961,(N
1.40881294965841,0.980555555634055,(N
1.41181471794947,0.988888888967949,(N
1.3502436316023,0.980555555634055,(N
1.26525885760898,0.994444444523992,(N
1.17250105768523,0.930555555630008,(N
1.09429494917471,0.872222222292066,(N
0.984206906855864,0.919444444517922,(N
1.32173211038199,0.919444444518035,(N
1.31621428758003,0.988888888968063,(N
1.34813508808704,0.975000000078012,(N
1.24860760092833,0.988888888968063,(N
0.736678871513181,0.997222222301957,(N
1.17571892321213,0.991666666746028,(N
1.22058006078097,0.988888888967949,(N
1.19205564886412,0.950000000075988,(N
1.14727342963298,0.961111111188075,(N
1.2561821118005,0.952777777853953,(N
0.875792748631052,0.994444444523992,(N
1.43257663428869,0.966666666744004,(N
1.39371111005632,0.955555555632031,(N
1.35299434155303,0.966666666744004,(N
1.30800911277614,0.963888888966039,(N
1.03649156481112,0.950000000076102,(N
0.871158828438061,0.961111111187961,(N
1.06462188959194,0.969444444521969,(N
1.20808530837377,0.955555555632031,(N
1.45249259591195,0.933333333407973,(N
1.28910859316678,0.886111111182004,(N
1.22955225288956,0.852777777845972,(N
1.21203273147433,0.863888888957945,(N
1.08840041011656,0.866666666736023,(N
1.19798146456564,0.913888888961992,(N
1.11717319548207,0.941666666742094,(N
1.3350508916387,0.913888888961992,(N
1.3137303715954,0.980555555633941,(N
1.30179416716189,0.952777777854067,(N
1.21402370542375,0.975000000077898,(N
1.37228868901843,0.991666666746028,(N
0.720115434230276,0.997222222302071,(N
1.24116103738637,0.963888888966039,(N
0.702002828718124,0.994444444523992,(N
1.30009466737601,0.977777777855977,(N
1.2699129191049,0.966666666744004,(N
1.39568294227209,0.975000000078012,(N
1.48200959235517,0.952777777853953,(N
1.11144107341862,0.994444444524106,(N
1.27170248568144,0.961111111188075,(N
1.36268073290676,0.872222222291953,(N
1.33309213787408,0.869444444513988,(N
1.31678013801663,0.880555555626074,(N
1.34201585888952,0.98333333341202,(N
0.562405172289202,0.994444444523992,(N
1.30064801335424,0.975000000077898,(N
1.26671575874179,0.972222222300047,(N
1.1674821940074,0.986111111189985,(N
0.747706336677963,0.997222222301957,(N
1.16698934376332,0.98333333341202,(N
1.25079477042047,0.936111111186051,(N
1.45018964052288,0.963888888966039,(N
1.21264403820125,0.911111111183914,(N
1.51741822451449,0.86111111117998,(N
1.36563875526279,0.844444444512078,(N
1.67454790532699,0.863888888957945,(N
1.68729685425848,0.858333333402015,(N
1.17870331913314,0.905555555627984,(N
0.988158538938338,0.900000000072055,(N
1.05684225559311,0.902777777850019,(N
1.0969983285673,0.875000000069917,(N
1.11844259589985,0.875000000070031,(N
1.24319594293911,0.911111111184027,(N
1.22582763165322,0.966666666744004,(N
0.892256175876625,0.994444444523992,(N
1.17950120508768,0.986111111190098,(N
1.17144662350498,0.961111111187961,(N
1.27201239526354,0.963888888966039,(N
1.19374314636074,0.972222222300047,(N
1.14381332844571,0.916666666739957,(N
1.15354364752851,0.908333333406063,(N
1.22636093199334,0.919444444517922,(N
1.18713265150867,0.975000000078012,(N
1.03987209260539,0.944444444520059,(N
1.22071388155306,0.908333333405949,(N
1.15201605171045,0.952777777854067,(N
1.38810569763269,0.961111111188075,(N
1.32251153320165,0.891666666737933,(N
1.26141585975967,0.91666666674007,(N
1.23251845210874,0.925000000073965,(N
1.25621354997238,0.919444444518035,(N
1.24192545503458,0.966666666744004,(N
0.939524249137447,0.991666666745914,(N
1.20952830910768,0.936111111186051,(N
1.59761959254851,0.858333333402015,(N
1.61236210793373,0.833333333399992,(N
1.44059390485388,0.841666666734,(N
1.44693281173806,0.852777777845972,(N
1.39803166419363,0.850000000068007,(N
1.36569620817999,0.900000000072055,(N
1.38903521776298,0.894444444515898,(N
1.36427745819191,0.944444444520059,(N
1.36907399922706,0.958333333409996,(N
1.22519886165951,0.975000000078012,(N
1.21204506218521,0.91666666674007,(N
1.18841346770613,0.913888888961992,(N
1.2385353398332,0.897222222293976,(N
1.38866748511883,0.950000000075988,(N
1.46972074329969,0.988888888967949,(N
1.17981777936318,0.980555555633941,(N
1.1392116940031,0.966666666744004,(N
1.3101667222392,0.994444444523992,(N
1.23277194798102,0.994444444523992,(N
1.39718645244932,0.922222222296,(N
1.37200741827579,0.913888888961992,(N
1.35058058858016,0.988888888968063,(N
1.33368030995213,0.94722222229791,(N
1.21584928721278,0.972222222300047,(N
1.39043858289818,0.933333333407973,(N
1.63256828516838,0.847222222290043,(N
1.5318538051854,0.827777777843949,(N
1.45949015021418,0.822222222288019,(N
1.39772017151212,0.819444444510054,(N
1.38090997457593,0.913888888961992,(N
1.32133004337646,0.977777777855977,(N
1.35795329213237,0.930555555630008,(N
1.3520075604329,0.877777777847996,(N
1.24051764369101,0.869444444513988,(N
1.30586269229743,0.916666666739957,(N
1.37162916392186,0.941666666741867,(N
1.35227977544184,0.991666666746141,(N
1.34350035369512,0.991666666745914,(N
1.27931542903304,0.994444444524106,(N
1.29646175742271,0.991666666746141,(N
1.29565533697707,0.980555555633828,(N
1.24334997266621,0.95833333341011,(N
1.28182992398831,0.980555555634055,(N
0.855788002611174,0.997222222302071,(N
1.42041110307083,0.986111111189985,(N
1.34260688364595,0.969444444521969,(N
1.42547372460479,0.991666666746141,(N
0.660398872793513,0.997222222301843,(N
0.804801885188565,0.997222222302071,(N
1.3607783502349,0.966666666744004,(N
1.32386082142684,0.97777777785609,(N
0.535747107864205,0.997222222302071,(N
1.24263257473826,0.994444444523879,(N
0.852258202732538,0.991666666746141,(N
1.32030235737653,0.941666666741867,(N
1.33009416461078,0.969444444522196,(N
1.45392238825661,0.98333333341202,(N
1.34090219408365,0.947222222298024,(N
1.32199962824674,0.947222222298024,(N
1.59871484667167,0.961111111187847,(N
1.33734889745803,0.919444444518149,(N
1.37686968922706,0.958333333409882,(N
1.32929238945337,0.908333333406063,(N
1.38265954703184,0.913888888961992,(N
1.39756007105204,0.900000000071941,(N
1.37721130937424,0.963888888966039,(N
1.30016736835336,0.980555555634055,(N
1.25847782522535,0.972222222299933,(N
1.19871384292929,0.966666666744004,(N
1.27516504108992,0.969444444521969,(N
0.612826555372116,0.997222222302071,(N
1.12705142200107,0.994444444524106,(N
1.23087843030787,0.977777777855863,(N
1.22703991234395,0.980555555634055,(N
1.22899150580251,0.963888888966039,(N
1.2864660140881,0.944444444520059,(N
1.10173570036972,0.891666666737819,(N
1.37379086285923,0.863888888958172,(N
1.44922388613318,0.902777777849906,(N
1.36519808560702,0.936111111185937,(N
1.29029793202972,0.966666666744004,(N
1.35554839253525,0.969444444521969,(N
1.45285427540661,0.991666666746141,(N
1.42617424637178,0.977777777855863,(N
1.31440202355476,0.969444444522196,(N
1.343329450191,0.975000000077898,(N
1.51755779862505,0.977777777855863,(N
1.43166379332637,0.947222222298024,(N
1.44860258400539,0.980555555634055,(N
1.43032725602496,0.986111111189985,(N
0.512042663992184,0.997222222302071,(N
1.47675867527832,0.988888888967949,(N
1.49985572397806,0.913888888961992,(N
1.47782692998739,0.955555555631918,(N
1.38831281691879,0.969444444521969,(N
1.48941006541361,0.983333333411792,(N
1.42551307380291,0.95277777785418,(N
1.34055193364711,0.972222222299933,(N
1.33097186535695,0.98333333341202,(N
1.20044299393978,0.963888888966039,(N
1.27601202488039,0.941666666741867,(N
1.37364992946479,0.972222222300161,(N
1.27345176100819,0.963888888965812,(N
1.3632896164069,0.950000000075988,(N
1.37780779481028,0.938888888964129,(N
1.3944876685748,0.969444444521969,(N
1.35265621483443,0.991666666745914,(N
1.33078853458259,0.975000000078126,(N
1.36458989203085,0.986111111189985,(N
1.34699622064927,0.980555555634055,(N
0.547771973312701,0.997222222302071,(N
1.41590416789163,0.988888888967949,(N
1.38721342533921,0.966666666744004,(N
1.29671036750175,0.975000000077898,(N
1.27485469669197,0.975000000078126,(N
1.39052921205857,0.975000000077898,(N
0.77701706349946,0.994444444524106,(N
1.40683640092715,0.980555555634055,(N
1.33554775148746,0.988888888967949,(N
1.43822891861298,0.969444444521969,(N
0.692079997957652,0.997222222302071,(N
1.44576999008754,0.961111111188075,(N
1.42651996463645,0.988888888967949,(N
1.414634822608,0.97777777785609,(N
1.11341380208852,0.994444444523879,(N
1.4779699844133,0.98333333341202,(N
1.41518299669121,0.958333333409882,(N
1.50326826959944,0.963888888966039,(N
1.45755535990101,0.980555555634055,(N
1.45605714440439,0.969444444521969,(N
1.39034636378395,0.988888888967949,(N
1.35996058523747,0.969444444521969,(N
1.30390643507366,0.991666666745914,(N
1.36145372778279,0.98333333341202,(N
1.26439225584364,0.947222222298024,(N
1.29791926264859,0.97777777785609,(N
1.37604557842133,0.991666666746141,(N
1.38031714588504,0.938888888963902,(N
1.39090659648272,0.936111111185937,(N
1.37141383946034,0.938888888964129,(N
1.36357858866546,0.919444444517922,(N
1.26556478887882,0.925000000074078,(N
1.43035287946558,0.963888888966039,(N
1.36198906600574,0.952777777853953,(N
1.37838576048705,0.936111111185937,(N
1.43718555539943,0.961111111188075,(N
1.51896048039304,0.986111111189985,(N
1.38994909286603,0.986111111189985,(N
1.14343411475531,0.994444444524106,(N
1.26300938338141,0.955555555632145,(N
1.14027249455571,0.994444444523879,(N
1.32027155608045,0.980555555634055,(N
1.29320524454215,0.972222222299933,(N
1.04879351675622,0.991666666745914,(N
1.51662686199049,0.95833333341011,(N
1.46350789487461,0.963888888966039,(N
1.35091246098371,0.947222222298024,(N
1.59919085890149,0.927777777851816,(N
1.14731224864815,0.966666666744004,(N
1.26436483532288,0.930555555630008,(N
1.25292872578003,0.980555555633828,(N
1.27326427459814,0.95833333341011,(N
1.30292190790271,0.950000000075988,(N
1.45035040050849,0.966666666744004,(N
1.43224748432734,0.963888888966039,(N
1.42153257936329,0.961111111187847,(N
1.3511243486413,0.972222222299933,(N
1.34237462103455,0.97777777785609,(N
1.3410161551843,0.988888888967949,(N
1.22588831722832,0.972222222300161,(N
1.24433059603067,0.950000000075988,(N
1.32520669072964,0.913888888961992,(N
1.32380291521632,0.972222222299933,(N
1.35817276179875,0.972222222299933,(N
1.30705361366385,0.988888888968177,(N
1.40043475121356,0.941666666741867,(N
1.45903219074112,0.883333333404153,(N
1.40056668996904,0.891666666737819,(N
1.50516039222575,0.883333333404153,(N
1.54680555105308,0.922222222295886,(N
1.37591986298688,0.994444444524106,(N
1.4000164625057,0.969444444521969,(N
1.47034900933598,0.911111111184027,(N
1.47421958029361,0.919444444517922,(N
1.38348271966065,0.933333333407973,(N
1.32322522878737,0.98333333341202,(N
1.2358073094496,0.98333333341202,(N
1.22795090079396,0.955555555632145,(N
1.22418949782936,0.941666666741867,(N
1.33274750828841,0.986111111190212,(N
1.43450545191858,0.972222222299933,(N
1.35621147543298,0.98333333341202,(N
1.22240189671607,0.927777777852043,(N
1.21704484105197,0.966666666744004,(N
1.17378840595568,0.969444444521969,(N
1.56780822187757,0.952777777853953,(N
1.33804401874635,0.98333333341202,(N
1.62321894109339,0.95833333341011,(N
1.51956883370969,0.955555555631918,(N
1.42881880879488,0.950000000075988,(N
1.35045388698663,0.95277777785418,(N
0.808401975930637,0.994444444523879,(N
1.53422393471112,0.988888888968177,(N
1.46051244974237,0.98333333341202,(N
1.38748817682358,0.950000000075988,(N
1.33745946288204,0.927777777851816,(N
1.3295948806414,0.966666666744004,(N
1.32125200897545,0.950000000075988,(N
1.41955869227747,0.972222222299933,(N
1.32701997608043,0.919444444518149,(N
1.27941552132457,0.936111111185937,(N
1.174310658873,0.961111111188075,(N
1.0706646636139,0.994444444523879,(N
1.37613112956369,0.955555555632145,(N
1.37348028689708,0.950000000075988,(N
1.27752642214378,0.972222222299933,(N
1.36323437422602,0.927777777852043,(N
1.28877211064183,0.950000000075988,(N
1.34190369814724,0.975000000078126,(N
1.29522337079163,0.994444444523879,(N
1.3610346409687,0.961111111188075,(N
1.48167940586902,0.894444444516012,(N
1.47496135801173,0.975000000077898,(N
1.39542397558782,0.975000000078126,(N
1.38658795803878,0.955555555631918,(N
1.38568621933556,0.95833333341011,(N
1.40089289516304,0.936111111185937,(N
1.4243659290681,0.930555555630008,(N
1.41430065780973,0.925000000074078,(N
1.54692116439455,0.986111111189985,(N
1.57959712594858,0.988888888967949,(N
1.43183087945083,0.975000000077898,(N
1.52570824503997,0.927777777852043,(N
1.39690396577218,0.963888888966039,(N
1.45531583547699,0.986111111189985,(N
1.39006665915351,0.98333333341202,(N
1.35429938852884,0.938888888964129,(N
1.37219904214244,0.897222222293976,(N
1.39790756702521,0.908333333406063,(N
1.37914380431266,0.963888888965812,(N
1.55574190288876,0.972222222300161,(N
0.863178159893558,0.997222222301843,(N
1.43423888206579,0.958333333409882,(N
1.49964215308518,0.894444444516012,(N
1.44900955140685,0.941666666742094,(N
1.36617656260819,0.952777777853953,(N
1.30219963282435,0.969444444521969,(N
1.22411827832554,0.980555555633828,(N
1.23506548673008,0.975000000078126,(N
1.14337776243778,0.944444444520059,(N
1.27069041371435,0.947222222298024,(N
1.00680096060145,0.994444444524106,(N
1.34033816099258,0.975000000077898,(N
1.2119150552163,0.98333333341202,(N
1.2193587452183,0.980555555634055,(N
1.43182939946748,0.944444444520059,(N
0.848684456945485,0.997222222301843,(N
1.17290483802645,0.955555555631918,(N
1.22722753554674,0.911111111184027,(N
1.27759783297862,0.944444444520059,(N
0.850097938478977,0.994444444524106,(N
1.33595566779461,0.969444444521969,(N
1.26143164992421,0.952777777853953,(N
1.19762579590174,0.911111111184027,(N
1.17285109520051,0.95833333341011,(N
1.23190258026211,0.963888888966039,(N
1.24230447858657,0.955555555631918,(N
1.28762506127453,0.98333333341202,(N
1.3168480256211,0.991666666745914,(N
1.46974745243893,0.986111111189985,(N
1.59390209376904,0.930555555630008,(N
1.52527708888146,0.938888888964129,(N
1.3978452479848,0.947222222298024,(N
1.16646012008279,0.958333333409882,(N
1.1497490832219,0.966666666744004,(N
1.22167106509301,0.947222222298024,(N
1.18920109748932,0.919444444518149,(N
1.19716765940276,0.950000000075988,(N
1.35135841429327,0.952777777853953,(N
0.882733044029246,0.991666666745914,(N
1.35900201946597,0.98333333341202,(N
1.32104943066926,0.972222222299933,(N
0.555661703646952,0.997222222302071,(N
1.54362827330952,0.994444444524106,(N
1.52274349331949,0.972222222299933,(N
1.36134412616582,0.975000000078126,(N
1.21318433702082,0.972222222299933,(N
1.17729473471737,0.988888888967949,(N
1.15413108617176,0.991666666745914,(N
1.13104392647831,0.969444444521969,(N
1.26872091174215,0.913888888961992,(N
1.28336186528289,0.944444444520059,(N
1.24601992130379,0.988888888967949,(N
1.18656823188173,0.988888888968177,(N
1.09250465124925,0.972222222299933,(N
1.33528403878301,0.916666666739957,(N
1.2251256021866,0.902777777850133,(N
1.22231321692554,0.908333333405835,(N
1.33196669906459,0.925000000074078,(N
1.34872850477779,0.944444444520059,(N
1.45877309084033,0.98333333341202,(N
1.45816656917416,0.936111111185937,(N
1.33915788292971,0.913888888961992,(N
1.25524165362205,0.911111111184027,(N
1.28777741402475,0.933333333407973,(N
1.29147451311438,0.969444444521969,(N
0.655588832200471,0.997222222302071,(N
0.513254898191334,0.997222222302071,(N
1.15847261607734,0.969444444521969,(N
1.07616793781605,0.888888888960082,(N
1.27480771064848,0.902777777849906,(N
1.34013770639984,0.927777777852043,(N
1.25126938313325,0.941666666742094,(N
1.20155643731435,0.925000000073851,(N
1.2969114658245,0.875000000070031,(N
1.33264739275063,0.833333333400105,(N
1.55695219129411,0.88611111118189,(N
1.4830010691294,0.863888888958172,(N
1.49287827015004,0.880555555625961,(N
1.49964126348576,0.90555555562787,(N
1.55736391395412,0.908333333406063,(N
1.36100268185221,0.908333333406063,(N
1.18701328367086,0.891666666737819,(N
1.15641829460949,0.900000000072168,(N
1.27572468876929,0.88611111118189,(N
1.30161609321922,0.961111111188075,(N
1.25552150309179,0.955555555631918,(N
1.26223710417842,0.930555555630008,(N
1.58198162853832,0.875000000070031,(N
1.48607625872005,0.841666666734,(N
1.51225892901522,0.888888888960082,(N
1.43052753239969,0.925000000073851,(N
1.31794779777617,0.95833333341011,(N
1.30695723682735,0.969444444521969,(N
1.284452188612,0.916666666739957,(N
1.61348420113431,0.883333333403925,(N
1.28035330951307,0.925000000074078,(N
1.34259525179953,0.966666666744004,(N
1.30083329260434,0.955555555631918,(N
1.24979096889584,0.925000000074078,(N
1.31309266090483,0.966666666744004,(N
1.22022733211611,0.950000000075988,(N
1.12907168746085,0.963888888966039,(N
1.18730281978943,0.952777777853953,(N
1.17928929001186,0.972222222299933,(N
1.07114210933555,0.991666666745914,(N
1.50821286320783,0.97777777785609,(N
1.41626817703337,0.958333333409882,(N
1.32270565033052,0.98333333341202,(N
1.36779065489864,0.98333333341202,(N
1.30301427573065,0.988888888967949,(N
1.33505042106001,0.963888888966039,(N
1.26360511511658,0.980555555634055,(N
1.253537208141,0.988888888968177,(N
1.14666728019804,0.972222222299933,(N
1.39825875192977,0.958333333409882,(N
1.38056792438148,0.991666666745914,(N
1.31194652289247,0.95833333341011,(N
1.3831844681511,0.977777777855863,(N
1.41732282728046,0.972222222299933,(N
0.832480950356387,0.997222222302071,(N
1.24008929878568,0.97777777785609,(N
1.26047278165905,0.952777777853953,(N
0.616652628184221,0.994444444524106,(N
0.796284421087273,0.994444444524106,(N
1.34756094098188,0.930555555630008,(N
1.24596667438847,0.961111111187847,(N
1.28234441459273,0.95277777785418,(N
1.26906136483038,0.975000000077898,(N
1.26816191315735,0.966666666744004,(N
1.2998620882641,0.988888888967949,(N
1.29429622411817,0.966666666744004,(N
1.25289302170361,0.963888888966039,(N
1.38321154326293,0.947222222298024,(N
0.828372909427636,0.994444444523879,(N
1.31518678963287,0.986111111189985,(N
1.63539847314459,0.950000000075988,(N
1.66372612267842,0.925000000073851,(N
1.53014500618087,0.963888888966039,(N
1.36816179990873,0.975000000078126,(N
1.442567601205,0.98333333341202,(N
1.47920698911049,0.963888888966039,(N
1.42964069187742,0.658333333385826,(N
1.27226301878799,0.988888888967949,(N
0.538118625880091,0.997222222302071,(N
1.23858404249045,0.969444444521969,(N
1.25013222426269,0.963888888966039,(N
0.615411985517386,0.997222222302071,(N
1.22845340728849,0.963888888966039,(N
1.37394719719983,0.947222222298024,(N
1.34123296171523,0.97777777785609,(N
0.79555777341222,0.997222222301843,(N
1.32710983723492,0.955555555631918,(N
1.31748334974139,0.95833333341011,(N
1.45267557144281,0.991666666745914,(N
1.32107799500321,0.975000000077898,(N
1.11792373895758,0.994444444524106,(N
1.28957413733106,0.955555555631918,(N
1.31749494850732,0.941666666742094,(N
1.11693536251901,0.994444444524106,(N
1.24466716647266,0.994444444523879,(N
1.21730812430473,0.95833333341011,(N
1.19996867746207,0.950000000075988,(N
1.07255016565436,0.991666666745914,(N
0.672118767798821,0.997222222302071,(N
1.23154732883068,0.944444444520059,(N
1.19361785322525,0.980555555634055,(N
1.33709654241889,0.961111111188075,(N
1.37556898474784,0.933333333407973,(N
0.549187260270891,0.997222222302071,(N
0.735000020564554,0.994444444523879,(N
0.703268274963883,0.997222222302071,(N
1.1464141535768,0.97777777785609,(N
1.30166341513495,0.98333333341202,(N
1.31237069666483,0.975000000078126,(N
1.26600450545642,0.952777777853953,(N
1.1146068647515,0.991666666746141,(N
1.22793225437496,0.97777777785609,(N
1.16829838275992,0.894444444516012,(N
1.35012542188259,0.850000000067894,(N
1.37438754618255,0.905555555628098,(N
1.16607345283131,0.988888888967949,(N
1.21753412962061,0.988888888967949,(N
1.40912025928603,0.988888888967949,(N
1.21624727249233,0.972222222300161,(N
1.16777018308751,0.991666666745914,(N
1.32090521961536,0.963888888966039,(N
1.22202560961339,0.980555555634055,(N
1.29412123918635,0.988888888967949,(N
1.26367354214282,0.972222222299933,(N
0.752734418214319,0.994444444524106,(N
1.25994114130846,0.994444444524106,(N
1.42088324189277,0.975000000078126,(N
1.3934767037639,0.944444444520059,(N
1.45283244967565,0.986111111189985,(N
1.46729791045301,0.988888888967949,(N
1.38652458965872,0.975000000078126,(N
1.43552999615758,0.938888888963902,(N
1.40340152442548,0.944444444520059,(N
1.39596965342857,0.980555555634055,(N
1.39674178779218,0.950000000075988,(N
1.39704199552631,0.966666666744004,(N
1.25797167062863,0.991666666745914,(N
1.37654808223332,0.961111111188075,(N
1.17832000374899,0.991666666745914,(N
1.14309083074433,0.991666666746141,(N
1.23576127588845,0.988888888968177,(N
1.27230112940182,0.991666666745914,(N
1.3234965401898,0.988888888967949,(N
1.32347203075975,0.95277777785418,(N
1.29572310924615,0.966666666744004,(N
1.17535277247518,0.930555555630008,(N
1.20456423699944,0.95833333341011,(N
1.01102947086206,0.991666666745914,(N
1.28062640041213,0.988888888967949,(N
1.20438996046871,0.980555555634055,(N
1.15951275438172,0.988888888967949,(N
1.24790881723258,0.980555555634055,(N
1.31560168325988,0.941666666741867,(N
1.32888059854595,0.919444444518149,(N
1.35294934123842,0.922222222295886,(N
1.45684178024611,0.913888888961992,(N
1.33578568458639,0.952777777853953,(N
1.15336191207257,0.938888888964129,(N
1.11552520603028,0.927777777852043,(N
1.0319083362826,0.938888888963902,(N
1.17300060927955,0.933333333407973,(N
1.28536406904553,0.98333333341202,(N
1.33065452844027,0.994444444524106,(N
1.13841083020064,0.97777777785609,(N
1.21604860931722,0.972222222299933,(N
1.39979085147471,0.941666666742094,(N
1.23082357466303,0.963888888965812,(N
1.02282782435526,0.991666666745914,(N
1.10374432057225,0.95833333341011,(N
1.13383634597147,0.969444444521969,(N
1.22891093432994,0.980555555634055,(N
1.38482593625903,0.991666666746141,(N
1.28200854033328,0.98333333341202,(N
1.35656974673362,0.930555555630008,(N
1.33344108820055,0.927777777851816,(N
1.12738823711985,0.994444444524106,(N
1.41649681478827,0.955555555632145,(N
1.3390861874827,0.930555555630008,(N
1.24726062655531,0.950000000075988,(N
1.33430921018216,0.922222222295886,(N
1.22558404952386,0.986111111189985,(N
1.21278274089193,0.952777777853953,(N
1.22709689349029,0.930555555630008,(N
1.14982789129109,0.927777777852043,(N
1.16578925609676,0.913888888961992,(N
1.15182288378561,0.952777777853953,(N
1.15230537593461,0.980555555634055,(N
1.20685652166687,0.963888888966039,(N
1.22868677467199,0.941666666741867,(N
1.23280641108846,0.980555555634055,(N
1.29573412865493,0.98333333341202,(N
1.21050021290866,0.972222222300161,(N
1.15048326552029,0.994444444523879,(N
1.31539155155525,0.986111111190212,(N
1.1697705763588,0.980555555633828,(N
1.18455135583976,0.97777777785609,(N
0.786853547693308,0.994444444524106,(N
1.14555516421881,0.958333333409882,(N
1.21842074602936,0.98333333341202,(N
1.21117371052617,0.991666666745914,(N
1.22028904795752,0.988888888967949,(N
1.18981359273278,0.966666666744004,(N
1.31658968567953,0.988888888968177,(N
1.28151152402266,0.986111111189985,(N
1.19190882355068,0.955555555632145,(N
1.37700266122916,0.938888888964129,(N
1.31573067903612,0.938888888963902,(N
1.31831830620857,0.95277777785418,(N
1.37267612308354,0.950000000075988,(N
1.26670348346322,0.938888888963902,(N
1.56234658748009,0.941666666742094,(N
1.39379378616903,0.936111111185937,(N
0.789444122613436,0.997222222302071,(N
1.30529662191959,0.950000000075988,(N
1.33024609148594,0.966666666744004,(N
1.28888635724866,0.975000000078126,(N
1.27132706433627,0.980555555633828,(N
1.39731746286258,0.986111111189985,(N
1.24111170530409,0.980555555634055,(N
1.37131681382748,0.972222222300161,(N
1.26580522716135,0.963888888965812,(N
1.29521243721346,0.98333333341202,(N
1.20606348246444,0.991666666745914,(N
1.15258470207564,0.994444444524106,(N
1.29064851224525,0.986111111189985,(N
0.827325065136912,0.994444444524106,(N
1.32638879656889,0.98333333341202,(N
0.619620390237143,0.997222222302071,(N
1.30086008638251,0.991666666746141,(N
0.90271769106487,0.997222222301843,(N
1.3152560773501,0.941666666742094,(N
1.29587769150819,0.947222222298024,(N
1.27163851499641,0.955555555631918,(N
1.29706518113696,0.969444444521969,(N
1.23553465426052,0.916666666740184,(N
1.17398215293969,0.930555555630008,(N
1.27319863200273,0.947222222298024,(N
1.25039205610842,0.975000000077898,(N
1.35616096049642,0.950000000075988,(N
1.38207193434333,0.947222222298024,(N
1.34115441650245,0.930555555630008,(N
1.32915428489567,0.994444444523879,(N
1.44677372634516,0.98333333341202,(N
1.44163920968863,0.972222222299933,(N
1.37660867601727,0.97777777785609,(N
1.31172502696625,0.988888888967949,(N
1.29347099423511,0.986111111189985,(N
1.43478820413465,0.991666666745914,(N
0.915824471712527,1.84166666681401,(B
0.794527274669068,1.54166666678998,(B
0.764520994722841,1.37777777788801,(B
1.0390028426059,1.59166666679403,(B
2.00312792301223,1.56388888901392,(B
1.6881012323509,1.76666666680808,(B
1.66821819573754,1.85277777792589,(B
1.99582537204103,2.25833333351397,(B
0.976472627521104,1.76666666680808,(B
1.19155566811626,1.72500000013792,(B
0.674094801545156,1.84722222236996,(B
1.40496440321256,2.2638888890699,(B
0.804747384489018,1.84166666681404,(B
0.80568798005638,1.880555555706,(B
0.561084770262746,1.7111111112481,(B
0.816212712824977,1.70277777791398,(B
2.28451354771913,1.68055555569003,(B
0.710016160905781,1.5833333334599,(B
1.34328332156055,1.850000000148,(B
1.34604248374816,1.82777777792401,(B
1.29592072099561,1.84722222236999,(B
1.17162807941545,1.89166666681801,(B
1.20587348491064,1.84166666681398,(B
1.19808138728246,1.80555555570001,(B
1.147332250775,1.88888888903998,(B
1.35434655338629,1.83333333347997,(B
1.46910633266085,1.80555555569998,(B
1.35058429181687,1.85000000014799,(B
1.22674957007284,1.83888888903607,(B
1.27488168120499,1.81111111125608,(B
1.20038450479615,1.81944444458998,(B
1.16123984605191,1.89444444459605,(B
1.21953981578457,1.89722222237401,(B
1.30229516863933,1.88611111126215,(B
1.21629701256857,1.88611111126193,(B
1.67983544051662,1.522222222344,(B
1.19474340379352,1.85277777792589,(B
1.25337201118591,1.79166666680999,(B
2.0194935178759,1.683333333468,(B
0.64687907368046,1.73611111125001,(B
1.53118311673521,1.93055555571004,(B
1.13317098111026,1.84722222236996,(B
1.23186918676006,1.83055555570195,(B
1.16913061261285,1.97500000015793,(B
1.52415895015116,1.844444444592,(B
1.37857475251073,1.86944444459414,(B
1.19127275735254,1.95277777793399,(B
1.2385905471454,1.85000000014793,(B
1.24503161758286,1.83888888903584,(B
1.07022689312801,1.90555555570791,(B
1.16476947575923,1.77777777791994,(B
1.11872570812808,1.89166666681808,(B
1.27508996069531,1.93333333348801,(B
1.30593652159097,1.77222222236401,(B
1.29054474622119,1.83333333348014,(B
0.890212152004827,0.986111111189999,(VT
1.68303393185154,0.930555555629894,(VT
1.69040087044283,1.02222222230398,(VT
0.780348707736086,1.02777777785991,(VT
1.96766896933364,1.09444444453197,(VT
2.08806728094867,0.97777777785609,(VT
1.89461002647903,1.07500000008599,(VT
1.40332969546373,1.244444444544,(VT
0.635691788196585,0.966666666744004,(VT
0.939122403264063,1.15555555564801,(VT
0.878101853728299,0.944444444519945,(VT
0.811555605232717,0.927777777851986,(VT
2.11712827295088,0.716666666723995,(VT
1.22934480011463,0.983333333411963,(VT
0.882528552413261,0.652777777830011,(VT
1.06817916512483,1.17500000009397,(VT
1.37913394570346,1.12500000009004,(VT
1.41566864848182,1.20833333343001,(VT
1.30979238957168,0.883333333403925,(VT
0.905350399017335,1.01388888896986,(VT
0.948483154475707,0.902777777850133,(VT
0.96998614609246,0.905555555628098,(VT
0.960654042065157,0.941666666741867,(VT
0.556826703846827,1.12500000009004,(VT
1.71166914999542,1.15555555564811,(VT
0.74900409519675,1.17500000009409,(VT
1.47665457159282,1.00000000008004,(VT
1.47730080694033,1.20833333342989,(VT
0.54584383815529,0.575000000045975,(VT
0.656200265288359,1.16944444453799,(VT
0.544814887642866,0.630555555605952,(VT
0.526832801997668,0.911111111184027,(VT
0.788297799825732,0.600000000048006,(VT
0.737444937825219,0.513888888929955,(VT
0.509371774196645,0.766666666728042,(VT
1.05905691176695,0.647222222273967,(VT
1.13143601536779,0.78055555561798,(VT
1.61093017816581,0.375000000029985,(VT
1.371079384387,0.350000000027876,(VT
